/home/vrajshah4/Desktop/4907_SonnetF/notch.son DE_EMBEDDED length=100.0 width=20.0 height=20.0 sep=80.0
FREQUENCY (GHz), DB[S21]-notch
1,-0.107479
1.05,-0.119812
1.1,-0.131245
1.15,-0.142097
1.2,-0.15264
1.25,-0.163095
1.3,-0.173635
1.35,-0.184385
1.4,-0.195431
1.45,-0.206825
1.5,-0.218591
1.55,-0.23073
1.6,-0.243231
1.65,-0.256066
1.7,-0.269203
1.75,-0.282602
1.8,-0.296222
1.85,-0.310021
1.9,-0.323956
1.95,-0.337986
2,-0.352072
2.05,-0.366177
2.1,-0.380264
2.15,-0.394303
2.2,-0.408261
2.25,-0.42211
2.3,-0.435822
2.35,-0.449373
2.4,-0.462737
2.45,-0.475891
2.5,-0.488814
2.55,-0.501481
2.6,-0.513873
2.65,-0.525968
2.7,-0.537744
2.75,-0.549181
2.8,-0.560256
2.85,-0.57095
2.9,-0.581239
2.95,-0.591102
3,-0.600517
3.05,-0.609461
3.1,-0.61791
3.15,-0.625841
3.2,-0.633231
3.25,-0.640054
3.3,-0.646287
3.35,-0.651904
3.4,-0.65688
3.45,-0.661189
3.5,-0.664806
3.55,-0.667704
3.6,-0.669857
3.65,-0.671239
3.7,-0.671824
3.75,-0.671585
3.8,-0.670497
3.85,-0.668534
3.9,-0.665671
3.95,-0.661882
4,-0.657145
4.05,-0.651436
4.1,-0.644733
4.15,-0.637017
4.2,-0.628267
4.25,-0.618468
4.3,-0.607605
4.35,-0.595668
4.4,-0.582646
4.45,-0.568538
4.5,-0.553343
4.55,-0.537066
4.6,-0.519721
4.65,-0.501326
4.7,-0.481909
4.75,-0.461508
4.8,-0.440172
4.85,-0.417962
4.9,-0.394956
4.95,-0.371248
5,-0.346951
5.05,-0.322202
5.1,-0.297165
5.15,-0.272031
5.2,-0.247028
5.25,-0.222419
5.3,-0.198513
5.35,-0.175668
5.4,-0.154296
5.45,-0.134871
5.5,-0.117934
5.55,-0.104103
5.6,-0.0940767
5.65,-0.0886422
5.7,-0.0886805
5.75,-0.0951716
5.8,-0.109197
5.85,-0.131938
5.9,-0.164678
5.95,-0.208787
6,-0.265718
6.05,-0.336983
6.1,-0.424133
6.15,-0.528726
6.2,-0.652293
6.25,-0.796299
6.3,-0.962101
6.35,-1.15091
6.4,-1.36374
6.45,-1.60139
6.5,-1.86441
6.55,-2.15312
6.6,-2.46754
6.65,-2.80747
6.7,-3.17251
6.75,-3.56204
6.8,-3.97532
6.85,-4.41151
6.9,-4.86971
6.95,-5.34902
7,-5.84857
7.05,-6.36757
7.1,-6.90532
7.15,-7.46126
7.2,-8.03498
7.25,-8.62623
7.3,-9.23497
7.35,-9.86134
7.4,-10.5057
7.45,-11.1687
7.5,-11.851
7.55,-12.554
7.6,-13.279
7.65,-14.0277
7.7,-14.8024
7.75,-15.6057
7.8,-16.4409
7.85,-17.3118
7.9,-18.2232
7.95,-19.181
8,-20.1926
8.05,-21.267
8.1,-22.4163
8.15,-23.656
8.2,-25.007
8.25,-26.4989
8.3,-28.1745
8.35,-30.1
8.4,-32.3857
8.45,-35.2369
8.5,-39.1065
8.55,-45.3534
8.6,-56.8605
8.65,-45.6665
8.7,-40.3827
8.75,-37.3492
8.8,-35.3041
8.85,-33.8187
8.9,-32.6982
8.95,-31.8386
9,-31.1788
9.05,-30.6807
9.1,-30.3199
9.15,-30.0812
9.2,-29.9556
9.25,-29.9391
9.3,-30.0325
9.35,-30.2411
9.4,-30.5756
9.45,-31.054
9.5,-31.7039
9.55,-32.5695
9.6,-33.7218
9.65,-35.2853
9.7,-37.501
9.75,-40.9315
9.8,-47.3615
9.85,-51.6552
9.9,-41.8651
9.95,-36.6666
10,-33.1509
10.05,-30.4504
10.1,-28.2296
10.15,-26.325
10.2,-24.6448
10.25,-23.1322
10.3,-21.7498
10.35,-20.4714
10.4,-19.2782
10.45,-18.1562
10.5,-17.0948
10.55,-16.0856
10.6,-15.1222
10.65,-14.1995
10.7,-13.3134
10.75,-12.4608
10.8,-11.6393
10.85,-10.8469
10.9,-10.0825
10.95,-9.34523
11,-8.63457
11.05,-7.95048
11.1,-7.29321
11.15,-6.66328
11.2,-6.06139
11.25,-5.48843
11.3,-4.94535
11.35,-4.43312
11.4,-3.95265
11.45,-3.50469
11.5,-3.08978
11.55,-2.70814
11.6,-2.35971
11.65,-2.04402
11.7,-1.76024
11.75,-1.50721
11.8,-1.28343
11.85,-1.08714
11.9,-0.916412
11.95,-0.769158
12,-0.643243
12.05,-0.536524
12.1,-0.44691
12.15,-0.372398
12.2,-0.311104
12.25,-0.261283
12.3,-0.22134
12.35,-0.189835
12.4,-0.165477
12.45,-0.147124
12.5,-0.133771
12.55,-0.124537
12.6,-0.11866
12.65,-0.115481
12.7,-0.114433
12.75,-0.115033
12.8,-0.116872
12.85,-0.119602
12.9,-0.122931
12.95,-0.126618
13,-0.130461
13.05,-0.134298
13.1,-0.137993
13.15,-0.141442
13.2,-0.144558
13.25,-0.14728
13.3,-0.14956
13.35,-0.151364
13.4,-0.152675
13.45,-0.15348
13.5,-0.153782
13.55,-0.153585
13.6,-0.152904
13.65,-0.151758
13.7,-0.15017
13.75,-0.148167
13.8,-0.145779
13.85,-0.143041
13.9,-0.139985
13.95,-0.136649
14,-0.133072
14.05,-0.12929
14.1,-0.125345
14.15,-0.121276
14.2,-0.117122
14.25,-0.112924
14.3,-0.108721
14.35,-0.104554
14.4,-0.10046
14.45,-0.096478
14.5,-0.0926453
14.55,-0.0889986
14.6,-0.0855735
14.65,-0.0824043
14.7,-0.0795245
14.75,-0.0769662
14.8,-0.0747601
14.85,-0.0729357
14.9,-0.0715208
14.95,-0.0705419
15,-0.0700239
15.05,-0.0699906
15.1,-0.0704647
15.15,-0.0714662
15.2,-0.0730133
15.25,-0.0751227
15.3,-0.0778089
15.35,-0.0810851
15.4,-0.0849621
15.45,-0.0894492
15.5,-0.0945538
15.55,-0.100281
15.6,-0.106636
15.65,-0.113618
15.7,-0.121229
15.75,-0.129466
15.8,-0.138326
15.85,-0.147804
15.9,-0.157891
15.95,-0.16858
16,-0.179859
16.05,-0.191717
16.1,-0.204139
16.15,-0.217111
16.2,-0.230615
16.25,-0.244634
16.3,-0.259148
16.35,-0.274136
16.4,-0.289577
16.45,-0.305447
16.5,-0.321722
16.55,-0.338377
16.6,-0.355386
16.65,-0.372721
16.7,-0.390355
16.75,-0.408259
16.8,-0.426404
16.85,-0.44476
16.9,-0.463297
16.95,-0.481984
17,-0.50079
17.05,-0.519682
17.1,-0.53863
17.15,-0.5576
17.2,-0.576561
17.25,-0.595481
17.3,-0.614326
17.35,-0.633064
17.4,-0.651662
17.45,-0.670089
17.5,-0.688311
17.55,-0.706296
17.6,-0.724013
17.65,-0.74143
17.7,-0.758514
17.75,-0.775235
17.8,-0.791561
17.85,-0.807462
17.9,-0.822908
17.95,-0.837868
18,-0.852315
18.05,-0.866217
18.1,-0.879548
18.15,-0.892277
18.2,-0.904379
18.25,-0.915824
18.3,-0.926587
18.35,-0.93664
18.4,-0.945958
18.45,-0.954516
18.5,-0.962288
18.55,-0.969251
18.6,-0.97538
18.65,-0.980653
18.7,-0.985047
18.75,-0.98854
18.8,-0.991111
18.85,-0.992739
18.9,-0.993405
18.95,-0.993089
19,-0.991774
19.05,-0.989442
19.1,-0.986076
19.15,-0.981662
19.2,-0.976185
19.25,-0.969631
19.3,-0.961989
19.35,-0.953248
19.4,-0.943399
19.45,-0.932435
19.5,-0.92035
19.55,-0.90714
19.6,-0.892804
19.65,-0.877342
19.7,-0.860759
19.75,-0.84306
19.8,-0.824256
19.85,-0.80436
19.9,-0.78339
19.95,-0.761368
20,-0.738322
/home/vrajshah4/Desktop/4907_SonnetF/notch.son DE_EMBEDDED length=100.0 width=20.0 height=20.0 sep=90.0
FREQUENCY (GHz), DB[S21]-notch
1,-0.106172
1.05,-0.117227
1.1,-0.127872
1.15,-0.138266
1.2,-0.148545
1.25,-0.158825
1.3,-0.169191
1.35,-0.179703
1.4,-0.190398
1.45,-0.201296
1.5,-0.212397
1.55,-0.223694
1.6,-0.235166
1.65,-0.246792
1.7,-0.258541
1.75,-0.270383
1.8,-0.282286
1.85,-0.294217
1.9,-0.306145
1.95,-0.318037
2,-0.329863
2.05,-0.341592
2.1,-0.353196
2.15,-0.364645
2.2,-0.375911
2.25,-0.386968
2.3,-0.397789
2.35,-0.408348
2.4,-0.418618
2.45,-0.428573
2.5,-0.438189
2.55,-0.44744
2.6,-0.4563
2.65,-0.464745
2.7,-0.472749
2.75,-0.480286
2.8,-0.487333
2.85,-0.493863
2.9,-0.499852
2.95,-0.505276
3,-0.510108
3.05,-0.514326
3.1,-0.517905
3.15,-0.520821
3.2,-0.523051
3.25,-0.524571
3.3,-0.52536
3.35,-0.525396
3.4,-0.524657
3.45,-0.523124
3.5,-0.520779
3.55,-0.517602
3.6,-0.513578
3.65,-0.508693
3.7,-0.502932
3.75,-0.496286
3.8,-0.488745
3.85,-0.480303
3.9,-0.470958
3.95,-0.46071
4,-0.449563
4.05,-0.437527
4.1,-0.424613
4.15,-0.410842
4.2,-0.396238
4.25,-0.380834
4.3,-0.364671
4.35,-0.347796
4.4,-0.330271
4.45,-0.312164
4.5,-0.29356
4.55,-0.274555
4.6,-0.255264
4.65,-0.235816
4.7,-0.216363
4.75,-0.197077
4.8,-0.178155
4.85,-0.159822
4.9,-0.142331
4.95,-0.125968
5,-0.111056
5.05,-0.0979558
5.1,-0.0870693
5.15,-0.0788444
5.2,-0.0737768
5.25,-0.072412
5.3,-0.0753484
5.35,-0.0832379
5.4,-0.0967865
5.45,-0.116754
5.5,-0.143951
5.55,-0.179236
5.6,-0.223509
5.65,-0.277702
5.7,-0.342772
5.75,-0.419686
5.8,-0.509406
5.85,-0.612871
5.9,-0.730983
5.95,-0.864584
6,-1.01444
6.05,-1.18121
6.1,-1.36546
6.15,-1.56762
6.2,-1.78799
6.25,-2.02672
6.3,-2.28385
6.35,-2.55926
6.4,-2.85274
6.45,-3.16393
6.5,-3.49243
6.55,-3.83773
6.6,-4.19929
6.65,-4.57654
6.7,-4.9689
6.75,-5.37579
6.8,-5.79667
6.85,-6.23105
6.9,-6.67848
6.95,-7.13859
7,-7.61107
7.05,-8.0957
7.1,-8.59237
7.15,-9.10105
7.2,-9.6218
7.25,-10.1548
7.3,-10.7004
7.35,-11.2589
7.4,-11.8309
7.45,-12.4171
7.5,-13.0182
7.55,-13.6354
7.6,-14.2696
7.65,-14.9223
7.7,-15.5951
7.75,-16.2898
7.8,-17.0086
7.85,-17.754
7.9,-18.5289
7.95,-19.3369
8,-20.1821
8.05,-21.0697
8.1,-22.0056
8.15,-22.9974
8.2,-24.0545
8.25,-25.189
8.3,-26.4165
8.35,-27.758
8.4,-29.2427
8.45,-30.9128
8.5,-32.8332
8.55,-35.1106
8.6,-37.9414
8.65,-41.7517
8.7,-47.7769
8.75,-59.5841
8.8,-49.3029
8.85,-43.862
8.9,-40.8398
8.95,-38.8709
9,-37.5049
9.05,-36.5434
9.1,-35.8853
9.15,-35.4769
9.2,-35.2917
9.25,-35.3226
9.3,-35.5803
9.35,-36.0957
9.4,-36.9301
9.45,-38.1983
9.5,-40.1311
9.55,-43.2711
9.6,-49.3523
9.65,-54.378
9.7,-43.9873
9.75,-38.4897
9.8,-34.7477
9.85,-31.8467
9.9,-29.4387
9.95,-27.3549
10,-25.5005
10.05,-23.8169
10.1,-22.2653
10.15,-20.8187
10.2,-19.4573
10.25,-18.1665
10.3,-16.9353
10.35,-15.7549
10.4,-14.6187
10.45,-13.5218
10.5,-12.4602
10.55,-11.4314
10.6,-10.434
10.65,-9.46728
10.7,-8.53192
10.75,-7.62943
10.8,-6.76236
10.85,-5.93424
10.9,-5.14939
10.95,-4.41277
11,-3.72961
11.05,-3.10497
11.1,-2.54319
11.15,-2.04734
11.2,-1.61879
11.25,-1.25693
11.3,-0.959139
11.35,-0.721014
11.4,-0.536805
11.45,-0.399928
11.5,-0.303487
11.55,-0.240712
11.6,-0.205285
11.65,-0.191537
11.7,-0.194543
11.75,-0.210131
11.8,-0.23484
11.85,-0.265854
11.9,-0.300911
11.95,-0.338224
12,-0.376399
12.05,-0.414363
12.1,-0.451304
12.15,-0.486619
12.2,-0.519871
12.25,-0.550754
12.3,-0.579067
12.35,-0.604689
12.4,-0.627562
12.45,-0.647674
12.5,-0.665053
12.55,-0.679754
12.6,-0.691853
12.65,-0.701439
12.7,-0.708616
12.75,-0.713492
12.8,-0.716182
12.85,-0.716803
12.9,-0.715473
12.95,-0.712311
13,-0.707433
13.05,-0.700956
13.1,-0.692993
13.15,-0.683655
13.2,-0.673052
13.25,-0.661288
13.3,-0.648465
13.35,-0.634685
13.4,-0.620042
13.45,-0.604629
13.5,-0.588538
13.55,-0.571854
13.6,-0.554662
13.65,-0.537043
13.7,-0.519074
13.75,-0.500831
13.8,-0.482386
13.85,-0.463807
13.9,-0.445161
13.95,-0.426513
14,-0.407922
14.05,-0.389447
14.1,-0.371143
14.15,-0.353064
14.2,-0.335258
14.25,-0.317774
14.3,-0.300656
14.35,-0.283945
14.4,-0.267682
14.45,-0.251902
14.5,-0.23664
14.55,-0.221926
14.6,-0.20779
14.65,-0.194258
14.7,-0.181352
14.75,-0.169094
14.8,-0.1575
14.85,-0.146588
14.9,-0.13637
14.95,-0.126855
15,-0.118053
15.05,-0.109968
15.1,-0.102603
15.15,-0.0959592
15.2,-0.0900346
15.25,-0.0848251
15.3,-0.0803246
15.35,-0.0765248
15.4,-0.0734151
15.45,-0.0709833
15.5,-0.0692149
15.55,-0.0680939
15.6,-0.0676023
15.65,-0.0677206
15.7,-0.0684276
15.75,-0.0697007
15.8,-0.0715159
15.85,-0.0738482
15.9,-0.076671
15.95,-0.0799568
16,-0.0836773
16.05,-0.0878031
16.1,-0.0923041
16.15,-0.0971495
16.2,-0.102308
16.25,-0.107748
16.3,-0.113436
16.35,-0.119341
16.4,-0.12543
16.45,-0.131669
16.5,-0.138026
16.55,-0.144469
16.6,-0.150963
16.65,-0.157478
16.7,-0.16398
16.75,-0.170438
16.8,-0.17682
16.85,-0.183096
16.9,-0.189236
16.95,-0.19521
17,-0.200989
17.05,-0.206545
17.1,-0.211852
17.15,-0.216882
17.2,-0.221611
17.25,-0.226015
17.3,-0.230071
17.35,-0.233758
17.4,-0.237054
17.45,-0.239942
17.5,-0.242403
17.55,-0.244422
17.6,-0.245984
17.65,-0.247077
17.7,-0.24769
17.75,-0.247813
17.8,-0.24744
17.85,-0.246566
17.9,-0.245188
17.95,-0.243305
18,-0.240919
18.05,-0.238036
18.1,-0.234662
18.15,-0.230807
18.2,-0.226484
18.25,-0.221709
18.3,-0.216502
18.35,-0.210886
18.4,-0.204886
18.45,-0.198534
18.5,-0.191864
18.55,-0.184915
18.6,-0.177729
18.65,-0.170356
18.7,-0.162847
18.75,-0.155261
18.8,-0.147662
18.85,-0.140119
18.9,-0.132707
18.95,-0.125507
19,-0.118608
19.05,-0.112104
19.1,-0.106096
19.15,-0.100694
19.2,-0.0960132
19.25,-0.0921769
19.3,-0.0893164
19.35,-0.0875704
19.4,-0.0870855
19.45,-0.0880161
19.5,-0.0905237
19.55,-0.0947769
19.6,-0.100952
19.65,-0.109234
19.7,-0.119813
19.75,-0.132885
19.8,-0.148652
19.85,-0.167322
19.9,-0.189106
19.95,-0.214218
20,-0.242875
/home/vrajshah4/Desktop/4907_SonnetF/notch.son DE_EMBEDDED length=100.0 width=20.0 height=20.0 sep=100.0
FREQUENCY (GHz), DB[S21]-notch
1,-0.104768
1.05,-0.113527
1.1,-0.122594
1.15,-0.131963
1.2,-0.141618
1.25,-0.151537
1.3,-0.161687
1.35,-0.172036
1.4,-0.182546
1.45,-0.193182
1.5,-0.203905
1.55,-0.214681
1.6,-0.225475
1.65,-0.236255
1.7,-0.24699
1.75,-0.257649
1.8,-0.268205
1.85,-0.278629
1.9,-0.288896
1.95,-0.298979
2,-0.308852
2.05,-0.31849
2.1,-0.327868
2.15,-0.33696
2.2,-0.345742
2.25,-0.354188
2.3,-0.362272
2.35,-0.369969
2.4,-0.377253
2.45,-0.3841
2.5,-0.390483
2.55,-0.396378
2.6,-0.40176
2.65,-0.406602
2.7,-0.410883
2.75,-0.414576
2.8,-0.417659
2.85,-0.42011
2.9,-0.421906
2.95,-0.423027
3,-0.423452
3.05,-0.423163
3.1,-0.422142
3.15,-0.420374
3.2,-0.417844
3.25,-0.414539
3.3,-0.410449
3.35,-0.405566
3.4,-0.399885
3.45,-0.393401
3.5,-0.386116
3.55,-0.378033
3.6,-0.369159
3.65,-0.359505
3.7,-0.349088
3.75,-0.337929
3.8,-0.326054
3.85,-0.313497
3.9,-0.300297
3.95,-0.286502
4,-0.272168
4.05,-0.257359
4.1,-0.242152
4.15,-0.226632
4.2,-0.2109
4.25,-0.195066
4.3,-0.179259
4.35,-0.163622
4.4,-0.148316
4.45,-0.133522
4.5,-0.119441
4.55,-0.106297
4.6,-0.094339
4.65,-0.0838404
4.7,-0.0751032
4.75,-0.0684586
4.8,-0.0642683
4.85,-0.0629261
4.9,-0.0648584
4.95,-0.0705255
5,-0.0804208
5.05,-0.095071
5.1,-0.115034
5.15,-0.140899
5.2,-0.17328
5.25,-0.212815
5.3,-0.260158
5.35,-0.315976
5.4,-0.380938
5.45,-0.455708
5.5,-0.540939
5.55,-0.637254
5.6,-0.745246
5.65,-0.86546
5.7,-0.998386
5.75,-1.14445
5.8,-1.304
5.85,-1.47731
5.9,-1.66458
5.95,-1.86589
6,-2.08128
6.05,-2.31067
6.1,-2.55393
6.15,-2.81083
6.2,-3.08111
6.25,-3.36444
6.3,-3.66044
6.35,-3.96873
6.4,-4.28888
6.45,-4.62048
6.5,-4.96311
6.55,-5.31635
6.6,-5.67983
6.65,-6.05319
6.7,-6.43611
6.75,-6.82832
6.8,-7.22957
6.85,-7.63969
6.9,-8.05855
6.95,-8.48607
7,-8.92224
7.05,-9.3671
7.1,-9.82077
7.15,-10.2834
7.2,-10.7553
7.25,-11.2366
7.3,-11.7279
7.35,-12.2295
7.4,-12.7421
7.45,-13.2662
7.5,-13.8026
7.55,-14.352
7.6,-14.9156
7.65,-15.4943
7.7,-16.0894
7.75,-16.7024
7.8,-17.3347
7.85,-17.9883
7.9,-18.6652
7.95,-19.3679
8,-20.0992
8.05,-20.8622
8.1,-21.6609
8.15,-22.4997
8.2,-23.384
8.25,-24.3203
8.3,-25.3165
8.35,-26.3827
8.4,-27.5313
8.45,-28.7786
8.5,-30.1462
8.55,-31.664
8.6,-33.3746
8.65,-35.3429
8.7,-37.6745
8.75,-40.5607
8.8,-44.4087
8.85,-50.3628
8.9,-62.1541
8.95,-53.1825
9,-47.7831
9.05,-44.9998
9.1,-43.3915
9.15,-42.5155
9.2,-42.2127
9.25,-42.4587
9.3,-43.3445
9.35,-45.1525
9.4,-48.6943
9.45,-56.9836
9.5,-51.9782
9.55,-43.8264
9.6,-38.9225
9.65,-35.299
9.7,-32.355
9.75,-29.8329
9.8,-27.5976
9.85,-25.5694
9.9,-23.6966
9.95,-21.9436
10,-20.2848
10.05,-18.7011
10.1,-17.1777
10.15,-15.7034
10.2,-14.2693
10.25,-12.8693
10.3,-11.4993
10.35,-10.1577
10.4,-8.84617
10.45,-7.56988
10.5,-6.3387
10.55,-5.16788
10.6,-4.07821
10.65,-3.09495
10.7,-2.24448
10.75,-1.54897
10.8,-1.02021
10.85,-0.655701
10.9,-0.438946
10.95,-0.343997
11,-0.34154
11.05,-0.403971
11.1,-0.508211
11.15,-0.636517
11.2,-0.776053
11.25,-0.91798
11.3,-1.05647
11.35,-1.18786
11.4,-1.31
11.45,-1.42176
11.5,-1.52269
11.55,-1.61279
11.6,-1.69232
11.65,-1.76172
11.7,-1.82153
11.75,-1.87233
11.8,-1.91471
11.85,-1.94927
11.9,-1.97656
11.95,-1.99713
12,-2.0115
12.05,-2.02015
12.1,-2.02353
12.15,-2.02206
12.2,-2.01614
12.25,-2.00612
12.3,-1.99236
12.35,-1.97516
12.4,-1.95483
12.45,-1.93162
12.5,-1.90581
12.55,-1.87763
12.6,-1.8473
12.65,-1.81503
12.7,-1.78103
12.75,-1.74547
12.8,-1.70853
12.85,-1.67037
12.9,-1.63115
12.95,-1.59102
13,-1.55012
13.05,-1.50857
13.1,-1.4665
13.15,-1.42403
13.2,-1.38127
13.25,-1.33834
13.3,-1.29532
13.35,-1.25232
13.4,-1.20942
13.45,-1.16672
13.5,-1.12429
13.55,-1.08222
13.6,-1.04057
13.65,-0.999422
13.7,-0.958831
13.75,-0.918862
13.8,-0.879572
13.85,-0.841012
13.9,-0.803233
13.95,-0.76628
14,-0.730194
14.05,-0.695013
14.1,-0.660772
14.15,-0.627499
14.2,-0.595223
14.25,-0.563965
14.3,-0.533746
14.35,-0.504582
14.4,-0.476486
14.45,-0.449465
14.5,-0.423528
14.55,-0.398676
14.6,-0.374909
14.65,-0.352224
14.7,-0.330615
14.75,-0.310072
14.8,-0.290585
14.85,-0.272138
14.9,-0.254716
14.95,-0.238299
15,-0.222867
15.05,-0.208397
15.1,-0.194863
15.15,-0.18224
15.2,-0.170499
15.25,-0.159611
15.3,-0.149546
15.35,-0.140272
15.4,-0.131755
15.45,-0.123964
15.5,-0.116863
15.55,-0.110419
15.6,-0.104596
15.65,-0.09936
15.7,-0.0946759
15.75,-0.0905087
15.8,-0.0868238
15.85,-0.0835868
15.9,-0.080764
15.95,-0.0783222
16,-0.0762289
16.05,-0.0744524
16.1,-0.0729621
16.15,-0.0717282
16.2,-0.0707222
16.25,-0.0699169
16.3,-0.0692863
16.35,-0.0688059
16.4,-0.0684527
16.45,-0.0682053
16.5,-0.0680441
16.55,-0.0679511
16.6,-0.0679102
16.65,-0.0679073
16.7,-0.0679303
16.75,-0.0679692
16.8,-0.0680161
16.85,-0.0680654
16.9,-0.0681139
16.95,-0.0681606
17,-0.0682072
17.05,-0.0682573
17.1,-0.0683172
17.15,-0.0683962
17.2,-0.0685065
17.25,-0.0686629
17.3,-0.0688834
17.35,-0.0691888
17.4,-0.0696029
17.45,-0.0701528
17.5,-0.0708687
17.55,-0.0717839
17.6,-0.0729353
17.65,-0.0743629
17.7,-0.0761102
17.75,-0.0782241
17.8,-0.0807549
17.85,-0.0837565
17.9,-0.0872863
17.95,-0.0914051
18,-0.0961771
18.05,-0.10167
18.1,-0.107955
18.15,-0.115107
18.2,-0.123203
18.25,-0.132323
18.3,-0.142553
18.35,-0.153977
18.4,-0.166685
18.45,-0.180769
18.5,-0.196322
18.55,-0.213439
18.6,-0.232218
18.65,-0.252756
18.7,-0.275152
18.75,-0.299506
18.8,-0.325917
18.85,-0.354483
18.9,-0.385303
18.95,-0.418473
19,-0.454086
19.05,-0.492235
19.1,-0.533009
19.15,-0.576493
19.2,-0.622767
19.25,-0.671908
19.3,-0.723988
19.35,-0.779072
19.4,-0.83722
19.45,-0.898485
19.5,-0.962914
19.55,-1.03055
19.6,-1.10141
19.65,-1.17554
19.7,-1.25294
19.75,-1.33362
19.8,-1.4176
19.85,-1.50485
19.9,-1.59536
19.95,-1.68913
20,-1.7861
/home/vrajshah4/Desktop/4907_SonnetF/notch.son DE_EMBEDDED length=100.0 width=20.0 height=20.0 sep=110.0
FREQUENCY (GHz), DB[S21]-notch
1,-0.103341
1.05,-0.117262
1.1,-0.130621
1.15,-0.143395
1.2,-0.155593
1.25,-0.167241
1.3,-0.178383
1.35,-0.189062
1.4,-0.199327
1.45,-0.20922
1.5,-0.218778
1.55,-0.228035
1.6,-0.237013
1.65,-0.24573
1.7,-0.254197
1.75,-0.262416
1.8,-0.270387
1.85,-0.278102
1.9,-0.285552
1.95,-0.292721
2,-0.299591
2.05,-0.306144
2.1,-0.312358
2.15,-0.318209
2.2,-0.323674
2.25,-0.328728
2.3,-0.333347
2.35,-0.337505
2.4,-0.341178
2.45,-0.344342
2.5,-0.346972
2.55,-0.349046
2.6,-0.350543
2.65,-0.35144
2.7,-0.351719
2.75,-0.351361
2.8,-0.35035
2.85,-0.348671
2.9,-0.346311
2.95,-0.343259
3,-0.339506
3.05,-0.335048
3.1,-0.329879
3.15,-0.324002
3.2,-0.317418
3.25,-0.310134
3.3,-0.302162
3.35,-0.293517
3.4,-0.284219
3.45,-0.274293
3.5,-0.26377
3.55,-0.252688
3.6,-0.241091
3.65,-0.229031
3.7,-0.216568
3.75,-0.203769
3.8,-0.190715
3.85,-0.177492
3.9,-0.164202
3.95,-0.150957
4,-0.137883
4.05,-0.125119
4.1,-0.112821
4.15,-0.10116
4.2,-0.0903252
4.25,-0.0805243
4.3,-0.0719845
4.35,-0.0649532
4.4,-0.0596996
4.45,-0.056515
4.5,-0.0557136
4.55,-0.0576327
4.6,-0.0626333
4.65,-0.071099
4.7,-0.083436
4.75,-0.100071
4.8,-0.121452
4.85,-0.148043
4.9,-0.180323
4.95,-0.218784
5,-0.263925
5.05,-0.31625
5.1,-0.376261
5.15,-0.444454
5.2,-0.521305
5.25,-0.607274
5.3,-0.702792
5.35,-0.808253
5.4,-0.924014
5.45,-1.05038
5.5,-1.18762
5.55,-1.33592
5.6,-1.49544
5.65,-1.66624
5.7,-1.84836
5.75,-2.04177
5.8,-2.24636
5.85,-2.46199
5.9,-2.68846
5.95,-2.92555
6,-3.17298
6.05,-3.43046
6.1,-3.69766
6.15,-3.97424
6.2,-4.25988
6.25,-4.55422
6.3,-4.85695
6.35,-5.16772
6.4,-5.48625
6.45,-5.81224
6.5,-6.14544
6.55,-6.48562
6.6,-6.83258
6.65,-7.18616
6.7,-7.54623
6.75,-7.9127
6.8,-8.2855
6.85,-8.66464
6.9,-9.05012
6.95,-9.44203
7,-9.84046
7.05,-10.2456
7.1,-10.6576
7.15,-11.0767
7.2,-11.5032
7.25,-11.9375
7.3,-12.3799
7.35,-12.831
7.4,-13.2912
7.45,-13.7611
7.5,-14.2414
7.55,-14.7327
7.6,-15.2361
7.65,-15.7523
7.7,-16.2824
7.75,-16.8276
7.8,-17.3891
7.85,-17.9685
7.9,-18.5674
7.95,-19.1877
8,-19.8315
8.05,-20.5012
8.1,-21.1997
8.15,-21.9302
8.2,-22.6965
8.25,-23.503
8.3,-24.3548
8.35,-25.2582
8.4,-26.2207
8.45,-27.2515
8.5,-28.362
8.55,-29.5664
8.6,-30.8833
8.65,-32.337
8.7,-33.9607
8.75,-35.8015
8.8,-37.9292
8.85,-40.4558
8.9,-43.5782
8.95,-47.7015
9,-53.912
9.05,-65.9307
9.1,-59.0823
9.15,-54.6306
9.2,-53.58
9.25,-55.1104
9.3,-61.4394
9.35,-58.0256
9.4,-48.4096
9.45,-42.6341
9.5,-38.338
9.55,-34.8232
9.6,-31.7915
9.65,-29.0852
9.7,-26.609
9.75,-24.2997
9.8,-22.1121
9.85,-20.0118
9.9,-17.9718
9.95,-15.9698
10,-13.9876
10.05,-12.0118
10.1,-10.0357
10.15,-8.06528
10.2,-6.13
10.25,-4.30011
10.3,-2.70206
10.35,-1.50176
10.4,-0.821053
10.45,-0.640969
10.5,-0.815603
10.55,-1.17663
10.6,-1.60303
10.65,-2.0275
10.7,-2.41886
10.75,-2.7656
10.8,-3.0658
10.85,-3.32184
10.9,-3.53772
